PSTAR: Stopping Powers and Range Tables for Protons

POLYCARBONATE (MAKROLON, LEXAN)

Kinetic   Electron. Nuclear   Total     CSDA      Projected Detour
Energy    Stp. Pow. Stp. Pow. Stp. Pow. Range     Range     Factor
MeV       MeV cm2/g MeV cm2/g MeV cm2/g g/cm2     g/cm2

1.000E-03 1.648E+02 3.535E+01 2.001E+02 6.229E-06 2.776E-06 0.4456
1.500E-03 2.018E+02 2.874E+01 2.306E+02 8.537E-06 4.175E-06 0.4890
2.000E-03 2.330E+02 2.451E+01 2.576E+02 1.059E-05 5.538E-06 0.5231
2.500E-03 2.605E+02 2.153E+01 2.821E+02 1.244E-05 6.850E-06 0.5507
3.000E-03 2.854E+02 1.928E+01 3.047E+02 1.414E-05 8.114E-06 0.5737
4.000E-03 3.246E+02 1.608E+01 3.407E+02 1.724E-05 1.053E-05 0.6105
5.000E-03 3.597E+02 1.389E+01 3.735E+02 2.004E-05 1.281E-05 0.6392
6.000E-03 3.914E+02 1.229E+01 4.036E+02 2.261E-05 1.498E-05 0.6622
7.000E-03 4.203E+02 1.105E+01 4.314E+02 2.501E-05 1.704E-05 0.6813
8.000E-03 4.462E+02 1.006E+01 4.562E+02 2.726E-05 1.902E-05 0.6975
9.000E-03 4.697E+02 9.254E+00 4.790E+02 2.940E-05 2.092E-05 0.7115
1.000E-02 4.917E+02 8.578E+00 5.002E+02 3.144E-05 2.276E-05 0.7238
1.250E-02 5.365E+02 7.286E+00 5.438E+02 3.623E-05 2.713E-05 0.7489
1.500E-02 5.743E+02 6.361E+00 5.807E+02 4.067E-05 3.126E-05 0.7686
1.750E-02 6.071E+02 5.661E+00 6.127E+02 4.486E-05 3.520E-05 0.7846
2.000E-02 6.362E+02 5.112E+00 6.414E+02 4.885E-05 3.897E-05 0.7979
2.250E-02 6.622E+02 4.668E+00 6.668E+02 5.267E-05 4.262E-05 0.8092
2.500E-02 6.851E+02 4.301E+00 6.894E+02 5.635E-05 4.615E-05 0.8189
2.750E-02 7.054E+02 3.992E+00 7.094E+02 5.993E-05 4.959E-05 0.8275
3.000E-02 7.236E+02 3.728E+00 7.274E+02 6.341E-05 5.295E-05 0.8351
3.500E-02 7.559E+02 3.299E+00 7.592E+02 7.013E-05 5.947E-05 0.8480
4.000E-02 7.839E+02 2.965E+00 7.869E+02 7.660E-05 6.577E-05 0.8586
4.500E-02 8.077E+02 2.697E+00 8.104E+02 8.285E-05 7.188E-05 0.8676
5.000E-02 8.269E+02 2.477E+00 8.294E+02 8.895E-05 7.785E-05 0.8753
5.500E-02 8.417E+02 2.293E+00 8.440E+02 9.492E-05 8.372E-05 0.8820
6.000E-02 8.528E+02 2.135E+00 8.550E+02 1.008E-04 8.950E-05 0.8879
6.500E-02 8.608E+02 2.000E+00 8.628E+02 1.066E-04 9.524E-05 0.8932
7.000E-02 8.660E+02 1.882E+00 8.679E+02 1.124E-04 1.009E-04 0.8979
7.500E-02 8.688E+02 1.778E+00 8.706E+02 1.182E-04 1.066E-04 0.9022
8.000E-02 8.696E+02 1.686E+00 8.713E+02 1.239E-04 1.123E-04 0.9062
8.500E-02 8.686E+02 1.603E+00 8.702E+02 1.296E-04 1.180E-04 0.9099
9.000E-02 8.660E+02 1.529E+00 8.675E+02 1.354E-04 1.236E-04 0.9132
9.500E-02 8.621E+02 1.462E+00 8.636E+02 1.412E-04 1.294E-04 0.9164
1.000E-01 8.571E+02 1.400E+00 8.585E+02 1.470E-04 1.351E-04 0.9193
1.250E-01 8.205E+02 1.162E+00 8.216E+02 1.767E-04 1.646E-04 0.9314
1.500E-01 7.745E+02 9.963E-01 7.755E+02 2.080E-04 1.957E-04 0.9407
1.750E-01 7.272E+02 8.743E-01 7.281E+02 2.413E-04 2.287E-04 0.9480
2.000E-01 6.822E+02 7.804E-01 6.830E+02 2.767E-04 2.640E-04 0.9540
2.250E-01 6.411E+02 7.057E-01 6.418E+02 3.145E-04 3.016E-04 0.9589
2.500E-01 6.041E+02 6.448E-01 6.048E+02 3.546E-04 3.415E-04 0.9630
2.750E-01 5.712E+02 5.939E-01 5.718E+02 3.972E-04 3.839E-04 0.9665
3.000E-01 5.420E+02 5.506E-01 5.425E+02 4.421E-04 4.286E-04 0.9695
3.500E-01 4.923E+02 4.813E-01 4.928E+02 5.389E-04 5.251E-04 0.9743
4.000E-01 4.521E+02 4.283E-01 4.525E+02 6.449E-04 6.307E-04 0.9779
4.500E-01 4.191E+02 3.862E-01 4.195E+02 7.598E-04 7.452E-04 0.9808
5.000E-01 3.918E+02 3.520E-01 3.922E+02 8.832E-04 8.682E-04 0.9830
5.500E-01 3.686E+02 3.237E-01 3.690E+02 1.015E-03 9.993E-04 0.9848
6.000E-01 3.484E+02 2.996E-01 3.487E+02 1.154E-03 1.138E-03 0.9863
6.500E-01 3.307E+02 2.790E-01 3.310E+02 1.301E-03 1.285E-03 0.9875
7.000E-01 3.149E+02 2.612E-01 3.152E+02 1.456E-03 1.440E-03 0.9885
7.500E-01 3.008E+02 2.455E-01 3.011E+02 1.619E-03 1.602E-03 0.9894
8.000E-01 2.881E+02 2.317E-01 2.884E+02 1.788E-03 1.771E-03 0.9902
8.500E-01 2.767E+02 2.195E-01 2.769E+02 1.965E-03 1.947E-03 0.9908
9.000E-01 2.661E+02 2.085E-01 2.663E+02 2.150E-03 2.131E-03 0.9914
9.500E-01 2.565E+02 1.986E-01 2.567E+02 2.341E-03 2.322E-03 0.9919
1.000E+00 2.476E+02 1.896E-01 2.478E+02 2.539E-03 2.520E-03 0.9923
1.250E+00 2.120E+02 1.550E-01 2.121E+02 3.634E-03 3.611E-03 0.9939
1.500E+00 1.863E+02 1.314E-01 1.865E+02 4.894E-03 4.869E-03 0.9949
1.750E+00 1.668E+02 1.142E-01 1.669E+02 6.313E-03 6.285E-03 0.9956
2.000E+00 1.513E+02 1.011E-01 1.514E+02 7.888E-03 7.857E-03 0.9960
2.250E+00 1.388E+02 9.077E-02 1.388E+02 9.614E-03 9.579E-03 0.9964
2.500E+00 1.283E+02 8.241E-02 1.284E+02 1.149E-02 1.145E-02 0.9966
2.750E+00 1.195E+02 7.550E-02 1.196E+02 1.351E-02 1.346E-02 0.9969
3.000E+00 1.119E+02 6.968E-02 1.120E+02 1.567E-02 1.562E-02 0.9970
3.500E+00 9.956E+01 6.045E-02 9.962E+01 2.041E-02 2.036E-02 0.9973
4.000E+00 8.985E+01 5.342E-02 8.990E+01 2.570E-02 2.564E-02 0.9975
4.500E+00 8.202E+01 4.790E-02 8.207E+01 3.153E-02 3.146E-02 0.9976
5.000E+00 7.556E+01 4.343E-02 7.560E+01 3.788E-02 3.780E-02 0.9977
5.500E+00 7.012E+01 3.975E-02 7.016E+01 4.476E-02 4.466E-02 0.9978
6.000E+00 6.548E+01 3.665E-02 6.552E+01 5.214E-02 5.203E-02 0.9979
6.500E+00 6.147E+01 3.401E-02 6.150E+01 6.002E-02 5.989E-02 0.9980
7.000E+00 5.796E+01 3.174E-02 5.799E+01 6.839E-02 6.826E-02 0.9980
7.500E+00 5.486E+01 2.976E-02 5.489E+01 7.726E-02 7.711E-02 0.9980
8.000E+00 5.211E+01 2.801E-02 5.213E+01 8.661E-02 8.644E-02 0.9981
8.500E+00 4.965E+01 2.647E-02 4.967E+01 9.644E-02 9.626E-02 0.9981
9.000E+00 4.742E+01 2.509E-02 4.745E+01 1.067E-01 1.065E-01 0.9982
9.500E+00 4.541E+01 2.385E-02 4.543E+01 1.175E-01 1.173E-01 0.9982
1.000E+01 4.357E+01 2.273E-02 4.360E+01 1.288E-01 1.285E-01 0.9982
1.250E+01 3.639E+01 1.843E-02 3.641E+01 1.918E-01 1.915E-01 0.9983
1.500E+01 3.139E+01 1.552E-02 3.141E+01 2.659E-01 2.655E-01 0.9984
1.750E+01 2.770E+01 1.342E-02 2.771E+01 3.509E-01 3.503E-01 0.9984
2.000E+01 2.485E+01 1.183E-02 2.486E+01 4.463E-01 4.456E-01 0.9985
2.500E+01 2.073E+01 9.576E-03 2.073E+01 6.676E-01 6.666E-01 0.9985
2.750E+01 1.918E+01 8.750E-03 1.919E+01 7.930E-01 7.918E-01 0.9985
3.000E+01 1.788E+01 8.057E-03 1.788E+01 9.281E-01 9.267E-01 0.9986
3.500E+01 1.578E+01 6.961E-03 1.579E+01 1.226E+00 1.225E+00 0.9986
4.000E+01 1.417E+01 6.133E-03 1.418E+01 1.561E+00 1.559E+00 0.9986
4.500E+01 1.290E+01 5.484E-03 1.290E+01 1.931E+00 1.929E+00 0.9987
5.000E+01 1.186E+01 4.962E-03 1.186E+01 2.336E+00 2.333E+00 0.9987
5.500E+01 1.099E+01 4.532E-03 1.100E+01 2.774E+00 2.770E+00 0.9987
6.000E+01 1.027E+01 4.172E-03 1.027E+01 3.245E+00 3.241E+00 0.9987
6.500E+01 9.643E+00 3.867E-03 9.647E+00 3.747E+00 3.743E+00 0.9987
7.000E+01 9.103E+00 3.603E-03 9.107E+00 4.281E+00 4.276E+00 0.9987
7.500E+01 8.631E+00 3.375E-03 8.634E+00 4.845E+00 4.839E+00 0.9988
8.000E+01 8.214E+00 3.174E-03 8.217E+00 5.439E+00 5.432E+00 0.9988
8.500E+01 7.843E+00 2.996E-03 7.846E+00 6.062E+00 6.055E+00 0.9988
9.000E+01 7.511E+00 2.837E-03 7.513E+00 6.714E+00 6.705E+00 0.9988
9.500E+01 7.211E+00 2.695E-03 7.214E+00 7.393E+00 7.384E+00 0.9988
1.000E+02 6.940E+00 2.566E-03 6.943E+00 8.100E+00 8.090E+00 0.9988
1.250E+02 5.895E+00 2.075E-03 5.897E+00 1.202E+01 1.201E+01 0.9988
1.500E+02 5.184E+00 1.745E-03 5.185E+00 1.656E+01 1.654E+01 0.9989
1.750E+02 4.668E+00 1.506E-03 4.669E+00 2.165E+01 2.163E+01 0.9989
2.000E+02 4.276E+00 1.327E-03 4.278E+00 2.725E+01 2.722E+01 0.9989
2.250E+02 3.970E+00 1.186E-03 3.971E+00 3.333E+01 3.329E+01 0.9990
2.500E+02 3.723E+00 1.073E-03 3.724E+00 3.983E+01 3.979E+01 0.9990
2.750E+02 3.520E+00 9.797E-04 3.521E+00 4.674E+01 4.670E+01 0.9990
3.000E+02 3.351E+00 9.019E-04 3.352E+00 5.403E+01 5.397E+01 0.9990
3.500E+02 3.085E+00 7.789E-04 3.086E+00 6.960E+01 6.954E+01 0.9991
4.000E+02 2.886E+00 6.860E-04 2.887E+00 8.638E+01 8.630E+01 0.9991
4.500E+02 2.733E+00 6.134E-04 2.733E+00 1.042E+02 1.041E+02 0.9991
5.000E+02 2.611E+00 5.549E-04 2.612E+00 1.229E+02 1.228E+02 0.9991
5.500E+02 2.513E+00 5.069E-04 2.513E+00 1.424E+02 1.423E+02 0.9992
6.000E+02 2.432E+00 4.667E-04 2.433E+00 1.627E+02 1.625E+02 0.9992
6.500E+02 2.365E+00 4.326E-04 2.366E+00 1.835E+02 1.834E+02 0.9992
7.000E+02 2.309E+00 4.033E-04 2.309E+00 2.049E+02 2.048E+02 0.9992
7.500E+02 2.260E+00 3.777E-04 2.260E+00 2.268E+02 2.266E+02 0.9992
8.000E+02 2.218E+00 3.553E-04 2.218E+00 2.492E+02 2.490E+02 0.9992
8.500E+02 2.181E+00 3.355E-04 2.181E+00 2.719E+02 2.717E+02 0.9993
9.000E+02 2.149E+00 3.178E-04 2.149E+00 2.950E+02 2.948E+02 0.9993
9.500E+02 2.121E+00 3.020E-04 2.121E+00 3.184E+02 3.182E+02 0.9993
1.000E+03 2.096E+00 2.876E-04 2.096E+00 3.421E+02 3.419E+02 0.9993
1.500E+03 1.957E+00 1.961E-04 1.958E+00 5.904E+02 5.901E+02 0.9994
2.000E+03 1.908E+00 1.495E-04 1.909E+00 8.496E+02 8.492E+02 0.9995
2.500E+03 1.892E+00 1.212E-04 1.892E+00 1.113E+03 1.112E+03 0.9995
3.000E+03 1.889E+00 1.021E-04 1.889E+00 1.378E+03 1.377E+03 0.9996
4.000E+03 1.901E+00 7.794E-05 1.901E+00 1.906E+03 1.905E+03 0.9996
5.000E+03 1.920E+00 6.323E-05 1.920E+00 2.429E+03 2.428E+03 0.9997
6.000E+03 1.940E+00 5.330E-05 1.940E+00 2.947E+03 2.947E+03 0.9997
7.000E+03 1.960E+00 4.613E-05 1.960E+00 3.460E+03 3.459E+03 0.9997
8.000E+03 1.979E+00 4.071E-05 1.979E+00 3.968E+03 3.967E+03 0.9997
9.000E+03 1.997E+00 3.646E-05 1.997E+00 4.471E+03 4.470E+03 0.9998
1.000E+04 2.014E+00 3.304E-05 2.014E+00 4.969E+03 4.968E+03 0.9998
